# Erec [keV] Efficiency   https://arxiv.org/pdf/2507.11930
0.3 0.005903971989340137
0.3352998965080594 0.009886097475142795
0.384464100907249 0.017731936149550594
0.4483776228901622 0.03485688525091295
0.5098328783891491 0.053255960153799374
0.598328408798379 0.08421184775657735
0.686823939207609 0.1147364490088048
0.7900687872005628 0.1459416096178227
0.9056047800665917 0.1733029671768116
1.0309734637752137 0.1877724649868844
1.139134750962742 0.1921241701181533
1.2792526584818098 0.18351924787843152
1.431661617100675 0.16937749735356808
1.5840707632660962 0.1493239324969621
1.7094394469747183 0.1316445656637934
1.847099181783138 0.10959759416729604
1.9995083279485593 0.09229414570090663
2.1248770116571816 0.07952388240673466
2.230579938587505 0.06931002303615784
2.39282177559552 0.07424149589608248
2.55506380015009 0.0759621066993238
2.7541789780040524 0.07683729178800591
2.8795474741661184 0.0759621066993238
3 0.07424149589608248