# Erec [keV] Efficiency   https://arxiv.org/pdf/2410.17036
0.0 0
1.4014762274038535 0
2.0653311663389533 0
2.5816646613714878 0.010736265774386506
3.097998156404022 0.03834355559014028
3.540568115694092 0.09815952571380772
4.2044258684203735 0.22392639975099168
5.015805065049226 0.4003067554656358
6.048472055114295 0.6012270218625434
7.007375509436893 0.7361963258383118
8.113803221453246 0.8251533631059124
9.07270667577585 0.8742331259628161
9.957849408147165 0.9003067554656359
11.1380378421148 0.9202453926709842
12.760801862954867 0.9340490522057667
14.752369493551354 0.9432515406519738
16.448894236342703 0.9463190221738039
18.587988938424125 0.9447852740994361
21.022126528310682 0.9432515406519738
23.382509023828312 0.9417177633237948
25.74288589176359 0.9432515406519738
28.250789831183784 0.9463190221738039
30.97997593645784 0.9493864744418228
33.70916766931426 0.9524539852174642
36.65964156802454 0.953987733291832
39.24130622939603 0.9509202517700018
41.23287385999251 0.9463190221738039
42.56058936544508 0.9401840445032382
44.10958703675149 0.9263803410877387
45.21601474876785 0.9110429334785883
46.174915389299265 0.8957055112425323
47.57639161670313 0.8619631998754957
49.05162856605826 0.8113496889442241
50.15805627807462 0.7714724145335276
51.19072326813967 0.7254601478253595
52.14962953625346 0.6779141330428236
53.10853017678488 0.6288343701859197
53.91990937341374 0.5874233184470439
54.43624568223744 0.546012266708168
55.395146322768866 0.4953987850307078
56.20653114698009 0.44785279950198315
57.09167106556022 0.4033742516143716
57.82930079540251 0.35582826608564705
58.788190180769206 0.3052147844081867
60.042150591852845 0.24693253310507562
61.59114263557691 0.18711662148903077
63.21390102883462 0.13190192484227825
64.91042577162597 0.08435582229830835
66.68071686395096 0.0536809778261963
68.22970890767503 0.03527611794902697
70.14752144390258 0.021472414533527603
72.21285542403271 0.012269984594943157
74.86827517977312 0.004601273476914927